#1-Q [GeV] 2--dN/dQdY [GeV-1] 3--dN_{PreEq}/dQdY [GeV-1] 3--dN_{Hydro}/dQdY [GeV-1]
1 0.00681299 0.000901732 0.00591126
1.08163 0.00508834 0.000799504 0.00428883
1.16327 0.0037117 0.000689685 0.00302202
1.2449 0.00283316 0.000459393 0.00237376
1.32653 0.00222751 0.000561714 0.00166579
1.40816 0.00165814 0.000395673 0.00126246
1.4898 0.0011932 0.000346914 0.000846283
1.57143 0.000919805 0.000307846 0.000611959
1.65306 0.000733074 0.000304271 0.000428803
1.73469 0.000578348 0.000230801 0.000347547
1.81633 0.000493066 0.000217895 0.00027517
1.89796 0.000347753 0.000157791 0.000189963
1.97959 0.000308484 0.000160589 0.000147895
2.06122 0.000205054 0.000109696 9.53577e-05
2.14286 0.000184099 0.000114684 6.94144e-05
2.22449 0.00015624 0.000107154 4.90866e-05
2.30612 0.000110944 6.94351e-05 4.15088e-05
2.38776 0.000107111 7.99109e-05 2.72004e-05
2.46939 7.62144e-05 5.57886e-05 2.04258e-05
2.55102 7.22753e-05 5.35447e-05 1.87306e-05
2.63265 5.55861e-05 4.3363e-05 1.22231e-05
2.71429 4.12494e-05 3.08639e-05 1.03855e-05
2.79592 3.94637e-05 3.16946e-05 7.76913e-06
2.87755 3.9575e-05 3.36293e-05 5.94564e-06
2.95918 2.82975e-05 2.26669e-05 5.63052e-06
3.04082 2.26545e-05 1.96436e-05 3.0109e-06
3.12245 2.10596e-05 1.88522e-05 2.20739e-06
3.20408 1.45527e-05 1.27831e-05 1.76967e-06
3.28571 1.16015e-05 1.02468e-05 1.35471e-06
3.36735 1.10404e-05 1.0197e-05 8.43481e-07
3.44898 7.67994e-06 6.70772e-06 9.72228e-07
3.53061 8.94856e-06 8.31535e-06 6.33212e-07
3.61224 6.21348e-06 5.72033e-06 4.93152e-07
3.69388 5.05958e-06 4.71721e-06 3.42377e-07
3.77551 3.96568e-06 3.68898e-06 2.76701e-07
3.85714 3.87124e-06 3.66108e-06 2.10156e-07
3.93878 3.72779e-06 3.5593e-06 1.68483e-07
4.02041 3.30044e-06 3.18349e-06 1.16944e-07
4.10204 2.23352e-06 2.12681e-06 1.06708e-07
4.18367 1.62804e-06 1.52567e-06 1.02369e-07
4.26531 2.28279e-06 2.20165e-06 8.11489e-08
4.34694 1.4011e-06 1.3433e-06 5.77999e-08
4.42857 1.31784e-06 1.2873e-06 3.05381e-08
4.5102 1.05492e-06 1.02937e-06 2.555e-08
4.59184 1.03604e-06 1.02488e-06 1.1165e-08
4.67347 8.75761e-07 8.63082e-07 1.2679e-08
4.7551 8.96768e-07 8.86648e-07 1.01207e-08
4.83673 7.09928e-07 7.01754e-07 8.17406e-09
4.91837 7.22475e-07 7.16467e-07 6.00845e-09
5 6.32554e-07 6.2794e-07 4.61432e-09
